# this file is part of refractiveindex.info database
# refractiveindex.info database is in the public domain
# copyright and related rights waived via CC0 1.0

REFERENCES: "C. C. Wang, X. C. Li, J. Y. Tan, L. H. Liu. Experimental measurement of optical constant of biodiesel by double optical pathlength transmission method, <a href=\"https://doi.org/10.3788/LOP52.051206\"><i>Laser Optoelectron. Prog.</i> <b>52</b>, 051206 (2015)</a> (Numerical data kindly provided by Chengchao Wang)"
COMMENTS: "Biodiesel, 20 °C."
DATA:
  - type: tabulated n
    data: |
        0.300 1.577
        0.340 1.528
        0.400 1.508
        0.450 1.488
        0.500 1.464
        0.550 1.459
        0.600 1.456
        0.650 1.453
        0.700 1.450
        0.750 1.449
        0.800 1.448
        0.840 1.447
        0.900 1.447
        0.950 1.444
        1.000 1.443
        1.050 1.443
        1.100 1.442
        1.150 1.441
        1.200 1.442
        1.250 1.440
        1.300 1.439
        1.350 1.438
        1.400 1.437
        1.450 1.438
        1.500 1.437
        1.550 1.437
        1.600 1.435
        1.650 1.435
        1.700 1.433
        1.750 1.433
        1.800 1.434
        1.850 1.434
        1.900 1.432
        1.950 1.432
        2.000 1.431
        2.050 1.431
        2.100 1.431
        2.150 1.430
        2.200 1.429
        2.250 1.428
        2.300 1.427
        2.350 1.426
        2.400 1.425
        2.450 1.425
        2.500 1.424
  - type: tabulated k
    data: |
        0.300 8.139E-06
        0.340 1.498E-05
        0.380 7.287E-06
        0.390 3.777E-06
        0.400 2.328E-06
        0.450 7.015E-07
        0.480 4.137E-07
        0.490 3.468E-07
        0.500 2.877E-07
        0.530 1.838E-07
        0.550 1.364E-07
        0.600 7.993E-08
        0.650 5.687E-08
        0.700 4.757E-08
        0.750 8.202E-08
        0.800 4.138E-08
        0.840 6.683E-08
        0.900 3.499E-07
        0.950 2.390E-07
        1.000 1.363E-07
        1.010 4.292E-07
        1.030 4.905E-07
        1.060 3.916E-07
        1.080 4.010E-07
        1.100 3.495E-07
        1.120 3.552E-07
        1.130 5.388E-07
        1.140 8.422E-07
        1.150 1.537E-06
        1.160 3.838E-06
        1.170 5.357E-06
        1.180 4.937E-06
        1.190 9.093E-06
        1.200 1.174E-05
        1.230 5.634E-06
        1.240 2.376E-06
        1.250 1.773E-06
        1.300 5.388E-07
        1.360 2.644E-06
        1.370 2.644E-06
        1.380 6.837E-06
        1.390 1.104E-05
        1.400 9.281E-06
        1.450 6.661E-06
        1.500 2.766E-06
        1.550 1.826E-06
        1.610 1.983E-06
        1.630 3.622E-06
        1.640 3.934E-06
        1.650 7.439E-06
        1.670 1.536E-05
        1.680 2.428E-05
        1.690 3.751E-05
        1.700 6.600E-05
        1.750 7.393E-05
        1.800 4.610E-05
        1.850 3.329E-05
        1.900 3.072E-05
        1.950 2.824E-05
        2.000 2.753E-05
        2.050 2.776E-05
        2.100 2.943E-05
        2.150 5.233E-05
        2.200 5.024E-05
        2.230 1.092E-04
        2.250 2.610E-04
        2.270 3.200E-04
        2.300 6.158E-04
        2.350 5.758E-04
        2.400 5.660E-04
        2.430 5.034E-04
        2.450 4.488E-04
        2.470 4.192E-04
        2.500 3.484E-04
SPECS:
    n_is_absolute: true
    wavelength_is_vacuum: true
    temperature: 20.0 °C
